 # time, energy, phys_var, phys_doublon, phys_num, step_i
0.0000000000000000  -9.7306714934264882 94.6859677129829436 0.4615068321291793 8.0000000000000000 0
0.0010000000000000  -9.7098424061979340 94.2868576217882151 0.4615068584754399 7.9999999999999956 1
0.0020000000000000  -9.6474633899822315 93.0969622562299719 0.4615069347525479 7.9999999999999911 2
0.0030000000000000  -9.5438582617323533 91.1384297145337143 0.4615070465060170 7.9999999999999964 3
0.0040000000000000  -9.3995636616818423 88.4476554901571888 0.4615071670685696 8.0000000000000036 4
0.0050000000000000  -9.2153245093820555 85.0745196490778000 0.4615072612920404 8.0000000000000018 5
0.0060000000000000  -8.9920877182744050 81.0813467826300069 0.4615072910046945 8.0000000000000036 6
0.0070000000000000  -8.7309942434643766 76.5416155710148303 0.4615072220350943 7.9999999999999858 7
0.0080000000000000  -8.4333695566774960 71.5384509782243470 0.4615070325982107 8.0000000000000107 8
0.0090000000000000  -8.1007126602299433 66.1629372517436991 0.4615067228000996 7.9999999999999947 9
0.0100000000000000  -7.7346837679751310 60.5122938729894315 0.4615063249852300 7.9999999999999920 10
0.0110000000000000  -7.3370907953574278 54.6879592935579950 0.4615059146263886 7.9999999999999973 11
0.0120000000000000  -6.9098748127245182 48.7936286413373068 0.4615056214416133 7.9999999999999964 12
0.0130000000000000  -6.4550946257634383 42.9332915803896995 0.4615056404160912 8.0000000000000000 13
0.0140000000000000  -5.9749106542245816 37.2093151971405405 0.4615062424095715 8.0000000000000036 14
0.0150000000000000  -5.4715682849148140 31.7206142446731931 0.4615077840412778 7.9999999999999947 15
0.0160000000000000  -4.9473808772551209 26.5609474281438196 0.4615107165640249 8.0000000000000000 16
0.0170000000000000  -4.4047125995337852 21.8173738123201382 0.4615155934666685 8.0000000000000036 17
0.0180000000000000  -3.8459612714069960 17.5688980581378509 0.4615230765779718 7.9999999999999964 18
0.0190000000000000  -3.2735413833142051 13.8853272486258845 0.4615339404845202 7.9999999999999911 19
0.0200000000000000  -2.6898674564265015 10.8263557553868264 0.4615490751190467 7.9999999999999893 20
0.0210000000000000  -2.0973378977123009 8.4408881368219930 0.4615694864221804 7.9999999999999929 21
0.0220000000000000  -1.4983194938886344 6.7666036542014236 0.4615962950287641 7.9999999999999973 22
0.0230000000000000  -0.8951326756604052 5.8297598340394874 0.4616307329781121 7.9999999999999982 23
0.0240000000000000  -0.2900376699804125 5.6452267680142132 0.4616741384945819 8.0000000000000036 24
0.0250000000000000  0.3147783566489848 6.2167386731931202 0.4617279489293551 8.0000000000000018 25
0.0260000000000000  0.9172130762979402 7.5373447554500093 0.4617936919952307 8.0000000000000000 26
0.0270000000000000  1.5152596276099672 9.5900377166366706 0.4618729754626041 7.9999999999999991 27
0.0280000000000000  2.1070160383647685 12.3485353783434242 0.4619674755158025 8.0000000000000018 28
0.0290000000000000  2.6906934034928485 15.7781888873564178 0.4620789239940438 7.9999999999999964 29
0.0300000000000000  3.2646227953728548 19.8369898155029247 0.4622090947600322 7.9999999999999956 30
0.0310000000000000  3.8272608986896861 24.4766481372452205 0.4623597894514838 8.0000000000000000 31
0.0320000000000000  4.3771943768759920 29.6437135057966401 0.4625328228765969 7.9999999999999982 32
0.0330000000000000  4.9131429910187085 35.2807133763237033 0.4627300083140083 8.0000000000000000 33
0.0340000000000000  5.4339615049256977 41.3272832510114227 0.4629531429712234 7.9999999999999938 34
0.0350000000000000  5.9386404216833171 47.7212665425489675 0.4632039938436518 8.0000000000000036 35
0.0360000000000000  6.4263056073913756 54.3997641608124667 0.4634842841995665 8.0000000000000036 36
0.0370000000000000  6.8962168667589143 61.3001168111607342 0.4637956808954650 8.0000000000000018 37
0.0380000000000000  7.3477655428372408 68.3608060430217961 0.4641397827020796 7.9999999999999982 38
0.0390000000000000  7.7804712193310781 75.5222632011835771 0.4645181097944429 8.0000000000000000 39
0.0400000000000000  8.1939776086711440 82.7275785149851117 0.4649320945309486 8.0000000000000036 40
0.0410000000000000  8.5880477123774259 89.9231055289136805 0.4653830736167958 8.0000000000000000 41
0.0420000000000000  8.9625583422408255 97.0589588610337444 0.4658722817175164 7.9999999999999929 42
0.0430000000000000  9.3174940915697384 104.0894058158623778 0.4664008465590898 8.0000000000000018 43
0.0440000000000000  9.6529408452703649 110.9731546323318696 0.4669697855229961 8.0000000000000107 44
0.0450000000000000  9.9690789159521547 117.6735440856626127 0.4675800037181608 8.0000000000000000 45
0.0460000000000000  10.2661758906805662 124.1586407676913240 0.4682322934873130 8.0000000000000036 46
0.0470000000000000  10.5445792695534877 130.4012516388616518 0.4689273352834368 8.0000000000000000 47
0.0480000000000000  10.8047089730747192 136.3788603827263159 0.4696656998327179 7.9999999999999822 48
0.0490000000000000  11.0470497904622569 142.0734967155943309 0.4704478514841272 8.0000000000000018 49
0.0500000000000000  11.2721438356818844 147.4715481324211055 0.4712741526323417 7.9999999999999938 50
0.0510000000000000  11.4805830722598117 152.5635236334917977 0.4721448690903329 7.9999999999999911 51
0.0520000000000000  11.6730019619178158 157.3437788071204295 0.4730601762803595 8.0000000000000000 52
0.0530000000000000  11.8500702859019551 161.8102112762904312 0.4740201661073511 8.0000000000000036 53
0.0540000000000000  12.0124861816452722 165.9639349875788525 0.4750248543763794 7.9999999999999982 54
0.0550000000000000  12.1609694312122620 169.8089411643607889 0.4760741886160555 8.0000000000000000 55
0.0560000000000000  12.2962550319033728 173.3517529972900775 0.4771680561718454 7.9999999999999902 56
0.0570000000000000  12.4190870735314469 176.6010803354177199 0.4783062924372997 8.0000000000000018 57
0.0580000000000000  12.5302129412822154 179.5674798000518138 0.4794886890966938 7.9999999999999973 58
0.0590000000000000  12.6303778577980914 182.2630248964712507 0.4807150022593543 8.0000000000000142 59
0.0600000000000000  12.7203197732238813 184.7009898680415176 0.4819849603736497 7.9999999999999982 60
0.0610000000000000  12.8007646074615629 186.8955502416513355 0.4832982718170611 8.0000000000000036 61
0.0620000000000000  12.8724218448285370 188.8615022676125932 0.4846546320676398 8.0000000000000107 62
0.0630000000000000  12.9359804777172798 190.6140027725146808 0.4860537303712366 7.9999999999999956 63
0.0640000000000000  12.9921052927264249 192.1683303281232611 0.4874952558281100 7.9999999999999982 64
0.0650000000000000  13.0414334900760576 193.5396680983110116 0.4889789028314489 8.0000000000000000 65
0.0660000000000000  13.0845716249323907 194.7429082617306335 0.4905043757991913 7.9999999999999947 66
0.0670000000000000  13.1220928575366873 195.7924775206557229 0.4920713931487826 7.9999999999999893 67
0.0680000000000000  13.1545344977506478 196.7021828945433128 0.4936796904724868 8.0000000000000018 68
0.0690000000000000  13.1823958287704315 197.4850767572102086 0.4953290228781674 7.9999999999999982 69
0.0700000000000000  13.2061361943082751 198.1533399048361446 0.4970191664673009 7.9999999999999991 70
0.0710000000000000  13.2261733334635778 198.7181813331242495 0.4987499189281883 8.0000000000000089 71
0.0720000000000000  13.2428819477783257 199.1897533502302053 0.5005210992280490 7.9999999999999973 72
0.0730000000000000  13.2565924855654718 199.5770806515099878 0.5023325463928379 8.0000000000000018 73
0.0740000000000000  13.2675901294802330 199.8880020266302608 0.5041841173683157 7.9999999999999982 74
0.0750000000000000  13.2761139744424685 200.1291234530805241 0.5060756839602472 8.0000000000000036 75
0.0760000000000000  13.2823563843786872 200.3057814467036621 0.5080071288555165 8.0000000000000107 76
0.0770000000000000  13.2864625178027573 200.4220156838485991 0.5099783407297306 8.0000000000000036 77
0.0780000000000000  13.2885300139604077 200.4805500757498180 0.5119892084504511 8.0000000000000053 78
0.0790000000000000  13.2886088330897945 200.4827816585710991 0.5140396143886932 8.0000000000000142 79
0.0800000000000000  13.2867012462675440 200.4287768574194217 0.5161294268549493 7.9999999999999947 80
0.0810000000000000  13.2827619722795980 200.3172748848137132 0.5182584916796883 8.0000000000000142 81
0.0820000000000000  13.2766984609492198 200.1456982391581505 0.5204266229622170 7.9999999999999982 82
0.0830000000000000  13.2683713243347476 199.9101704723493356 0.5226335930161129 8.0000000000000071 83
0.0840000000000000  13.2575949191457561 199.6055415933664676 0.5248791215440959 7.9999999999999982 84
0.0850000000000000  13.2441380855856750 199.2254216622872889 0.5271628640804240 7.9999999999999964 85
0.0860000000000000  13.2277250495775807 198.7622233021267277 0.5294843997446297 7.9999999999999938 86
0.0870000000000000  13.2080364969383215 198.2072140096826161 0.5318432183567718 8.0000000000000018 87
0.0880000000000000  13.1847108294994673 197.5505792764517707 0.5342387069713852 7.9999999999999982 88
0.0890000000000000  13.1573456144050347 196.7814976317486071 0.5366701358950114 8.0000000000000036 89
0.0900000000000000  13.1254992388086027 195.8882287872866925 0.5391366442605151 8.0000000000000036 90
0.0910000000000000  13.0886927829241397 194.8582160905840794 0.5416372252404684 7.9999999999999991 91
0.0920000000000000  13.0464121248198062 193.6782044782382286 0.5441707109914808 7.9999999999999920 92
0.0930000000000000  12.9981102904605379 192.3343750543700992 0.5467357574316523 7.9999999999999956 93
0.0940000000000000  12.9432100622744741 190.8124972992628443 0.5493308289639355 8.0000000000000089 94
0.0950000000000000  12.8811068589185300 189.0980997339858050 0.5519541832693647 7.9999999999999991 95
0.0960000000000000  12.8111718979303646 187.1766596245948335 0.5546038563053779 8.0000000000000036 96
0.0970000000000000  12.7327556515571754 185.0338120013432786 0.5572776476558509 8.0000000000000071 97
0.0980000000000000  12.6451916042384074 182.6555778923631976 0.5599731063907565 8.0000000000000018 98
0.0990000000000000  12.5478003179750015 180.0286112270683248 0.5626875176042936 7.9999999999999956 99
0.1000000000000000  12.4398938091448308 177.1404633535618700 0.5654178898106805 8.0000000000000036 100
0.1010000000000000  12.3207802372199033 173.9798635401000979 0.5681609433863709 7.9999999999999929 101
0.1020000000000000  12.1897689023194875 170.5370131991950302 0.5709131002558294 8.0000000000000018 102
0.1030000000000000  12.0461755446062515 166.8038908928757564 0.5736704750249935 8.0000000000000036 103
0.1040000000000000  11.8893279342286107 162.7745644606707174 0.5764288677718242 7.9999999999999947 104
0.1050000000000000  11.7185717358590065 158.4455058726741470 0.5791837587065283 8.0000000000000018 105
0.1060000000000000  11.5332766269200455 153.8159036665997803 0.5819303049149069 8.0000000000000089 106
0.1070000000000000  11.3328426433745655 148.8879671009940466 0.5846633393964462 7.9999999999999947 107
0.1080000000000000  11.1167067215418847 143.6672154707631535 0.5873773726039845 7.9999999999999876 108
0.1090000000000000  10.8843493988588058 138.1627454125300858 0.5900665966837950 8.0000000000000018 109
0.1100000000000000  10.6353016309041983 132.3874685047634046 0.5927248926034296 7.9999999999999973 110
0.1110000000000000  10.3691516764376530 126.3583110714281474 0.5953458403395677 7.9999999999999991 111
0.1120000000000000  10.0855519967542495 120.0963678589245092 0.5979227322791841 7.9999999999999956 112
0.1130000000000000  9.7842261104308896 113.6270012048348121 0.6004485899645795 8.0000000000000000 113
0.1140000000000000  9.4649753396350214 106.9798774824729151 0.6029161842861307 8.0000000000000142 114
0.1150000000000000  9.1276853796953219 100.1889330135298479 0.6053180591961548 8.0000000000000142 115
0.1160000000000000  8.7723326197028886 93.2922623141314631 0.6076465589830946 8.0000000000000036 116
0.1170000000000000  8.3989901386345132 86.3319224935567178 0.6098938591076335 8.0000000000000036 117
0.1180000000000000  8.0078332989728338 79.3536488687180537 0.6120520005616181 8.0000000000000036 118
0.1190000000000000  7.5991448581490211 72.4064783917940105 0.6141129276671812 8.0000000000000071 119
0.1200000000000000  7.1733195174496469 65.5422793037976561 0.6160685291877942 7.9999999999999991 120
0.1210000000000000  6.7308678284015686 58.8151875032993487 0.6179106825755812 7.9999999999999991 121
0.1220000000000000  6.2724193781556323 52.2809524252957587 0.6196313011309140 7.9999999999999964 122
0.1230000000000000  5.7987251780969107 45.9961977168207170 0.6212223838016098 8.0000000000000053 123
0.1240000000000000  5.3106591838653330 40.0176046179240927 0.6226760673009151 7.9999999999999920 124
0.1250000000000000  4.8092188802066049 34.4010286425384209 0.6239846801765756 7.9999999999999920 125
0.1260000000000000  4.2955248705980624 29.2005628267920443 0.6251407984185989 7.9999999999999982 126
0.1270000000000000  3.7708194193970064 24.4675633874548488 0.6261373021515900 8.0000000000000036 127
0.1280000000000000  3.2364639033024263 20.2496560191828436 0.6269674329197692 8.0000000000000053 128
0.1290000000000000  2.6939351391442630 16.5897431614941269 0.6276248510396358 8.0000000000000036 129
0.1300000000000000  2.1448205663311488 13.5250342903064009 0.6281036924676846 8.0000000000000071 130
0.1310000000000000  1.5908122745862576 11.0861225432797781 0.6283986246092528 7.9999999999999964 131
0.1320000000000000  1.0336998807440825 9.2961316894284582 0.6285049004802353 7.9999999999999956 132
0.1330000000000000  0.4753622722088301 8.1699575292116453 0.6284184106264792 8.0000000000000089 133
0.1340000000000000  -0.0822417509948202 7.7136272046052046 0.6281357322069123 8.0000000000000053 134
0.1350000000000000  -0.6370838890178379 7.9237985714848955 0.6276541746558587 8.0000000000000000 135
0.1360000000000000  -1.1870777485578841 8.7874197231887159 0.6269718213581906 8.0000000000000000 136
0.1370000000000000  -1.7300911669720831 10.2815659632631711 0.6260875667976077 8.0000000000000036 137
0.1380000000000000  -2.2639593641290521 12.3734680424963930 0.6250011486737970 7.9999999999999982 138
0.1390000000000000  -2.7864988184647399 15.0207413629809317 0.6237131745278639 7.9999999999999947 139
0.1400000000000000  -3.2955217510567438 18.1718211996018013 0.6222251424671870 7.9999999999999876 140
0.1410000000000000  -3.7888510900044361 21.7666039118586419 0.6205394556399806 8.0000000000000018 141
0.1420000000000000  -4.2643357772275552 25.7372887538351662 0.6186594301756848 8.0000000000000053 142
0.1430000000000000  -4.7198662711897006 30.0094093937927084 0.6165892963790675 7.9999999999999964 143
0.1440000000000000  -5.1533900922077081 34.5030387975503885 0.6143341930424360 8.0000000000000071 144
0.1450000000000000  -5.5629272520944122 39.1341458899099734 0.6119001548206036 7.9999999999999982 145
0.1460000000000000  -5.9465854070386364 43.8160775658384551 0.6092940926959399 7.9999999999999991 146
0.1470000000000000  -6.3025745719599282 48.4611353525469823 0.6065237676445170 7.9999999999999973 147
0.1480000000000000  -6.6292212361554528 52.9822124871788702 0.6035977576977164 8.0000000000000089 148
0.1490000000000000  -6.9249817239141764 57.2944545153833644 0.6005254186751192 8.0000000000000000 149
0.1500000000000000  -7.1884546498986586 61.3169048507636631 0.5973168389426300 7.9999999999999982 150
0.1510000000000000  -7.4183923274371359 64.9740961499060745 0.5939827886230613 8.0000000000000000 151
0.1520000000000000  -7.6137109983352484 68.1975489026330592 0.5905346637534596 8.0000000000000018 152
0.1530000000000000  -7.7734997652763553 70.9271403236527647 0.5869844259430388 7.9999999999999964 153
0.1540000000000000  -7.8970281221617356 73.1123094310417656 0.5833445381363256 8.0000000000000018 154
0.1550000000000000  -7.9837519936412296 74.7130680399218079 0.5796278971273630 7.9999999999999876 155
0.1560000000000000  -8.0333182123657441 75.7007921789234359 0.5758477635014028 7.9999999999999982 156
0.1570000000000000  -8.0455673808913026 76.0587740103742647 0.5720176897002129 8.0000000000000018 157
0.1580000000000000  -8.0205350843947709 75.7825205306018290 0.5681514469154656 7.9999999999999982 158
0.1590000000000000  -7.9584514401231132 74.8797919488528123 0.5642629515116658 7.9999999999999929 159
0.1600000000000000  -7.8597389894789194 73.3703794805483085 0.5603661916660998 8.0000000000000036 160
0.1610000000000000  -7.7250089585288819 71.2856291233892136 0.5564751548887009 8.0000000000000036 161
0.1620000000000000  -7.5550559321955895 68.6677245941353647 0.5526037570505300 8.0000000000000213 162
0.1630000000000000  -7.3508510061510215 65.5687487795372590 0.5487657735066108 8.0000000000000053 163
0.1640000000000000  -7.1135334981808054 62.0495486036041157 0.5449747728485719 8.0000000000000036 164
0.1650000000000000  -6.8444013172610152 58.1784329660156629 0.5412440537661412 7.9999999999999964 165
0.1660000000000000  -6.5449001035380530 54.0297372241665101 0.5375865854357441 8.0000000000000000 166
0.1670000000000000  -6.2166112656094583 49.6822904702773300 0.5340149517906532 7.9999999999999947 167
0.1680000000000000  -5.8612390527879850 45.2178235298286353 0.5305412999620980 7.9999999999999947 168
0.1690000000000000  -5.4805968092446529 40.7193561527527237 0.5271772931158987 8.0000000000000053 169
0.1700000000000000  -5.0765925639626683 36.2696012987937451 0.5239340678460296 8.0000000000000000 170
0.1710000000000000  -4.6512141152249207 31.9494227857334252 0.5208221962263980 8.0000000000000178 171
0.1720000000000000  -4.2065137708762901 27.8363799612487455 0.5178516525660585 7.9999999999999885 172
0.1730000000000000  -3.7445929058627585 24.0033895938640747 0.5150317848621155 7.9999999999999991 173
0.1740000000000000  -3.2675864966040384 20.5175309983520506 0.5123712908992616 7.9999999999999947 174
0.1750000000000000  -2.7776477876956447 17.4390156770061679 0.5098781989057414 8.0000000000000071 175
0.1760000000000000  -2.2769332403837796 14.8203376429244642 0.5075598526426679 8.0000000000000018 176
0.1770000000000000  -1.7675879043674483 12.7056152718397932 0.5054229007770681 7.9999999999999973 177
0.1780000000000000  -1.2517313449389804 11.1301301798628014 0.5034732903683933 7.9999999999999929 178
0.1790000000000000  -0.7314442464793091 10.1200634119031143 0.5017162642832174 7.9999999999999947 179
0.1800000000000000  -0.2087558011047238 9.6924243014244436 0.5001563623427133 7.9999999999999973 180
0.1810000000000000  0.3143680219543598 9.8551628594732286 0.4987974260016072 7.9999999999999956 181
0.1820000000000000  0.8360352446242675 10.6074525799455834 0.4976426063549013 8.0000000000000000 182
0.1830000000000000  1.3544376187600196 11.9401271939847060 0.4966943752688219 8.0000000000000107 183
0.1840000000000000  1.8678592829973295 13.8362522279582532 0.4959545394345313 8.0000000000000142 184
0.1850000000000000  2.3746843000174080 16.2718102487043446 0.4954242571462678 8.0000000000000036 185
0.1860000000000000  2.8734030511065543 19.2164774229209385 0.4951040576091837 8.0000000000000053 186
0.1870000000000000  3.3626174790304986 22.6344684570143002 0.4949938625856096 7.9999999999999911 187
0.1880000000000000  3.8410451837722333 26.4854270803365637 0.4950930101913408 8.0000000000000178 188
0.1890000000000000  4.3075223884337985 30.7253399313346094 0.4954002806555851 8.0000000000000018 189
0.1900000000000000  4.7610058044228634 35.3074529309426950 0.4959139238591326 7.9999999999999964 190
0.1910000000000000  5.2005734358130864 40.1831708982223219 0.4966316884651409 8.0000000000000089 191
0.1920000000000000  5.6254243723789035 45.3029231906186567 0.4975508524556982 8.0000000000000000 192
0.1930000000000000  6.0348776291906665 50.6169804432040991 0.4986682548851968 7.9999999999999902 193
0.1940000000000000  6.4283700977617819 56.0762099463410735 0.4999803286587847 7.9999999999999991 194
0.1950000000000000  6.8054536795458134 61.6327597515124097 0.5014831341410180 8.0000000000000071 195
